"Mach","Pressure","vtkValidPointMask","arc_length","Points:0","Points:1","Points:2"
0.93457,7e+05,1,0,0,0,0
0.93707,6.9822e+05,1,0.0061618,0.0061618,0,0
0.93958,6.9645e+05,1,0.012324,0.012324,0,0
0.94208,6.9467e+05,1,0.018485,0.018485,0,0
0.94458,6.929e+05,1,0.024647,0.024647,0,0
0.94709,6.9112e+05,1,0.030809,0.030809,0,0
0.94958,6.8935e+05,1,0.036971,0.036971,0,0
0.95206,6.876e+05,1,0.043133,0.043133,0,0
0.95454,6.8584e+05,1,0.049294,0.049294,0,0
0.95702,6.8408e+05,1,0.055456,0.055456,0,0
0.95949,6.8233e+05,1,0.061618,0.061618,0,0
0.96197,6.8057e+05,1,0.06778,0.06778,0,0
0.96445,6.7882e+05,1,0.073942,0.073942,0,0
0.96693,6.7706e+05,1,0.080103,0.080103,0,0
0.9694,6.7531e+05,1,0.086265,0.086265,0,0
0.97185,6.7358e+05,1,0.092427,0.092427,0,0
0.9743,6.7185e+05,1,0.098589,0.098589,0,0
0.97675,6.7012e+05,1,0.10475,0.10475,0,0
0.97921,6.6839e+05,1,0.11091,0.11091,0,0
0.98166,6.6666e+05,1,0.11707,0.11707,0,0
0.98411,6.6494e+05,1,0.12324,0.12324,0,0
0.98656,6.6321e+05,1,0.1294,0.1294,0,0
0.989,6.6148e+05,1,0.13556,0.13556,0,0
0.99143,6.5978e+05,1,0.14172,0.14172,0,0
0.99385,6.5807e+05,1,0.14788,0.14788,0,0
0.99627,6.5637e+05,1,0.15405,0.15405,0,0
0.99869,6.5466e+05,1,0.16021,0.16021,0,0
1.0011,6.5296e+05,1,0.16637,0.16637,0,0
1.0035,6.5125e+05,1,0.17253,0.17253,0,0
1.006,6.4955e+05,1,0.17869,0.17869,0,0
1.0084,6.4784e+05,1,0.18485,0.18485,0,0
1.0108,6.4617e+05,1,0.19102,0.19102,0,0
1.0132,6.445e+05,1,0.19718,0.19718,0,0
1.0155,6.4282e+05,1,0.20334,0.20334,0,0
1.0179,6.4115e+05,1,0.2095,0.2095,0,0
1.0203,6.3947e+05,1,0.21566,0.21566,0,0
1.0227,6.378e+05,1,0.22182,0.22182,0,0
1.0251,6.3612e+05,1,0.22799,0.22799,0,0
1.0275,6.3445e+05,1,0.23415,0.23415,0,0
1.0298,6.3281e+05,1,0.24031,0.24031,0,0
1.0322,6.3116e+05,1,0.24647,0.24647,0,0
1.0345,6.2952e+05,1,0.25263,0.25263,0,0
1.0369,6.2788e+05,1,0.2588,0.2588,0,0
1.0393,6.2623e+05,1,0.26496,0.26496,0,0
1.0416,6.2459e+05,1,0.27112,0.27112,0,0
1.044,6.2295e+05,1,0.27728,0.27728,0,0
1.0463,6.213e+05,1,0.28344,0.28344,0,0
1.0487,6.1969e+05,1,0.2896,0.2896,0,0
1.051,6.1807e+05,1,0.29577,0.29577,0,0
1.0533,6.1645e+05,1,0.30193,0.30193,0,0
1.0556,6.1484e+05,1,0.30809,0.30809,0,0
1.058,6.1322e+05,1,0.31425,0.31425,0,0
1.0603,6.116e+05,1,0.32041,0.32041,0,0
1.0626,6.0999e+05,1,0.32658,0.32658,0,0
1.065,6.0837e+05,1,0.33274,0.33274,0,0
1.0673,6.0677e+05,1,0.3389,0.3389,0,0
1.0696,6.0518e+05,1,0.34506,0.34506,0,0
1.0719,6.0358e+05,1,0.35122,0.35122,0,0
1.0742,6.0199e+05,1,0.35738,0.35738,0,0
1.0765,6.0039e+05,1,0.36355,0.36355,0,0
1.0789,5.9879e+05,1,0.36971,0.36971,0,0
1.0812,5.972e+05,1,0.37587,0.37587,0,0
1.0835,5.956e+05,1,0.38203,0.38203,0,0
1.0858,5.9402e+05,1,0.38819,0.38819,0,0
1.0881,5.9243e+05,1,0.39436,0.39436,0,0
1.0904,5.9085e+05,1,0.40052,0.40052,0,0
1.0927,5.8927e+05,1,0.40668,0.40668,0,0
1.095,5.8769e+05,1,0.41284,0.41284,0,0
1.0974,5.861e+05,1,0.419,0.419,0,0
1.0997,5.8452e+05,1,0.42516,0.42516,0,0
1.102,5.8294e+05,1,0.43133,0.43133,0,0
1.1043,5.8136e+05,1,0.43749,0.43749,0,0
1.1066,5.7979e+05,1,0.44365,0.44365,0,0
1.1089,5.7822e+05,1,0.44981,0.44981,0,0
1.1112,5.7664e+05,1,0.45597,0.45597,0,0
1.1135,5.7507e+05,1,0.46213,0.46213,0,0
1.1159,5.735e+05,1,0.4683,0.4683,0,0
1.1182,5.7193e+05,1,0.47446,0.47446,0,0
1.1205,5.7035e+05,1,0.48062,0.48062,0,0
1.1228,5.6878e+05,1,0.48678,0.48678,0,0
1.1251,5.6721e+05,1,0.49294,0.49294,0,0
1.1275,5.6564e+05,1,0.49911,0.49911,0,0
1.1298,5.6407e+05,1,0.50527,0.50527,0,0
1.1321,5.6249e+05,1,0.51143,0.51143,0,0
1.1344,5.6092e+05,1,0.51759,0.51759,0,0
1.1368,5.5935e+05,1,0.52375,0.52375,0,0
1.1391,5.5778e+05,1,0.52991,0.52991,0,0
1.1414,5.5621e+05,1,0.53608,0.53608,0,0
1.1438,5.5465e+05,1,0.54224,0.54224,0,0
1.1461,5.5308e+05,1,0.5484,0.5484,0,0
1.1485,5.5152e+05,1,0.55456,0.55456,0,0
1.1508,5.4996e+05,1,0.56072,0.56072,0,0
1.1532,5.4839e+05,1,0.56689,0.56689,0,0
1.1555,5.4683e+05,1,0.57305,0.57305,0,0
1.1579,5.4526e+05,1,0.57921,0.57921,0,0
1.1602,5.437e+05,1,0.58537,0.58537,0,0
1.1626,5.4212e+05,1,0.59153,0.59153,0,0
1.165,5.4054e+05,1,0.59769,0.59769,0,0
1.1673,5.3896e+05,1,0.60386,0.60386,0,0
1.1697,5.3739e+05,1,0.61002,0.61002,0,0
1.1721,5.3581e+05,1,0.61618,0.61618,0,0
1.1745,5.3423e+05,1,0.62234,0.62234,0,0
1.1768,5.3265e+05,1,0.6285,0.6285,0,0
1.1792,5.3108e+05,1,0.63467,0.63467,0,0
1.1816,5.2951e+05,1,0.64083,0.64083,0,0
1.184,5.2794e+05,1,0.64699,0.64699,0,0
1.1864,5.2637e+05,1,0.65315,0.65315,0,0
1.1888,5.248e+05,1,0.65931,0.65931,0,0
1.1912,5.2324e+05,1,0.66547,0.66547,0,0
1.1936,5.2167e+05,1,0.67164,0.67164,0,0
1.196,5.201e+05,1,0.6778,0.6778,0,0
1.1985,5.1853e+05,1,0.68396,0.68396,0,0
1.2009,5.1694e+05,1,0.69012,0.69012,0,0
1.2033,5.1535e+05,1,0.69628,0.69628,0,0
1.2058,5.1376e+05,1,0.70245,0.70245,0,0
1.2082,5.1217e+05,1,0.70861,0.70861,0,0
1.2107,5.1058e+05,1,0.71477,0.71477,0,0
1.2131,5.0899e+05,1,0.72093,0.72093,0,0
1.2156,5.074e+05,1,0.72709,0.72709,0,0
1.218,5.0582e+05,1,0.73325,0.73325,0,0
1.2205,5.0425e+05,1,0.73942,0.73942,0,0
1.2229,5.0268e+05,1,0.74558,0.74558,0,0
1.2254,5.0111e+05,1,0.75174,0.75174,0,0
1.2279,4.9955e+05,1,0.7579,0.7579,0,0
1.2303,4.9798e+05,1,0.76406,0.76406,0,0
1.2328,4.9641e+05,1,0.77022,0.77022,0,0
1.2353,4.9485e+05,1,0.77639,0.77639,0,0
1.2378,4.9328e+05,1,0.78255,0.78255,0,0
1.2402,4.917e+05,1,0.78871,0.78871,0,0
1.2427,4.9012e+05,1,0.79487,0.79487,0,0
1.2452,4.8854e+05,1,0.80103,0.80103,0,0
1.2477,4.8696e+05,1,0.8072,0.8072,0,0
1.2502,4.8538e+05,1,0.81336,0.81336,0,0
1.2527,4.8379e+05,1,0.81952,0.81952,0,0
1.2552,4.8221e+05,1,0.82568,0.82568,0,0
1.2577,4.8063e+05,1,0.83184,0.83184,0,0
1.2602,4.7907e+05,1,0.838,0.838,0,0
1.2627,4.7751e+05,1,0.84417,0.84417,0,0
1.2652,4.7595e+05,1,0.85033,0.85033,0,0
1.2677,4.7439e+05,1,0.85649,0.85649,0,0
1.2702,4.7283e+05,1,0.86265,0.86265,0,0
1.2727,4.7127e+05,1,0.86881,0.86881,0,0
1.2751,4.6971e+05,1,0.87498,0.87498,0,0
1.2776,4.6815e+05,1,0.88114,0.88114,0,0
1.2801,4.6662e+05,1,0.8873,0.8873,0,0
1.2826,4.6509e+05,1,0.89346,0.89346,0,0
1.2851,4.6356e+05,1,0.89962,0.89962,0,0
1.2876,4.6203e+05,1,0.90578,0.90578,0,0
1.29,4.605e+05,1,0.91195,0.91195,0,0
1.2925,4.5897e+05,1,0.91811,0.91811,0,0
1.295,4.5744e+05,1,0.92427,0.92427,0,0
1.2975,4.5591e+05,1,0.93043,0.93043,0,0
1.2999,4.5443e+05,1,0.93659,0.93659,0,0
1.3024,4.5296e+05,1,0.94276,0.94276,0,0
1.3048,4.5149e+05,1,0.94892,0.94892,0,0
1.3073,4.5002e+05,1,0.95508,0.95508,0,0
1.3097,4.4855e+05,1,0.96124,0.96124,0,0
1.3122,4.4708e+05,1,0.9674,0.9674,0,0
1.3146,4.4562e+05,1,0.97356,0.97356,0,0
1.3171,4.4415e+05,1,0.97973,0.97973,0,0
1.3195,4.4269e+05,1,0.98589,0.98589,0,0
1.322,4.4123e+05,1,0.99205,0.99205,0,0
1.3244,4.3978e+05,1,0.99821,0.99821,0,0
1.3268,4.3832e+05,1,1.0044,1.0044,0,0
1.3292,4.3687e+05,1,1.0105,1.0105,0,0
1.3317,4.3541e+05,1,1.0167,1.0167,0,0
1.3341,4.3396e+05,1,1.0229,1.0229,0,0
1.3365,4.325e+05,1,1.029,1.029,0,0
1.3389,4.3109e+05,1,1.0352,1.0352,0,0
1.3413,4.2971e+05,1,1.0413,1.0413,0,0
1.3437,4.2832e+05,1,1.0475,1.0475,0,0
1.3461,4.2693e+05,1,1.0537,1.0537,0,0
1.3485,4.2555e+05,1,1.0598,1.0598,0,0
1.3509,4.2416e+05,1,1.066,1.066,0,0
1.3532,4.2277e+05,1,1.0722,1.0722,0,0
1.3556,4.2139e+05,1,1.0783,1.0783,0,0
1.358,4.2001e+05,1,1.0845,1.0845,0,0
1.3603,4.1864e+05,1,1.0906,1.0906,0,0
1.3627,4.1727e+05,1,1.0968,1.0968,0,0
1.3651,4.159e+05,1,1.103,1.103,0,0
1.3674,4.1453e+05,1,1.1091,1.1091,0,0
1.3698,4.1316e+05,1,1.1153,1.1153,0,0
1.3721,4.1179e+05,1,1.1214,1.1214,0,0
1.3745,4.1042e+05,1,1.1276,1.1276,0,0
1.3768,4.0908e+05,1,1.1338,1.1338,0,0
1.3791,4.0778e+05,1,1.1399,1.1399,0,0
1.3814,4.0648e+05,1,1.1461,1.1461,0,0
1.3837,4.0518e+05,1,1.1523,1.1523,0,0
1.386,4.0388e+05,1,1.1584,1.1584,0,0
1.3883,4.0258e+05,1,1.1646,1.1646,0,0
1.3906,4.0128e+05,1,1.1707,1.1707,0,0
1.393,3.9998e+05,1,1.1769,1.1769,0,0
1.3952,3.9868e+05,1,1.1831,1.1831,0,0
1.3975,3.974e+05,1,1.1892,1.1892,0,0
1.3998,3.9611e+05,1,1.1954,1.1954,0,0
1.4021,3.9483e+05,1,1.2016,1.2016,0,0
1.4043,3.9354e+05,1,1.2077,1.2077,0,0
1.4066,3.9226e+05,1,1.2139,1.2139,0,0
1.4089,3.9097e+05,1,1.22,1.22,0,0
1.4112,3.8969e+05,1,1.2262,1.2262,0,0
1.4134,3.8843e+05,1,1.2324,1.2324,0,0
1.4157,3.8721e+05,1,1.2385,1.2385,0,0
1.4179,3.8599e+05,1,1.2447,1.2447,0,0
1.4201,3.8477e+05,1,1.2508,1.2508,0,0
1.4224,3.8355e+05,1,1.257,1.257,0,0
1.4246,3.8233e+05,1,1.2632,1.2632,0,0
1.4268,3.8112e+05,1,1.2693,1.2693,0,0
1.4291,3.799e+05,1,1.2755,1.2755,0,0
1.4313,3.7868e+05,1,1.2817,1.2817,0,0
1.4335,3.7747e+05,1,1.2878,1.2878,0,0
1.4357,3.7627e+05,1,1.294,1.294,0,0
1.4379,3.7506e+05,1,1.3001,1.3001,0,0
1.4401,3.7385e+05,1,1.3063,1.3063,0,0
1.4423,3.7265e+05,1,1.3125,1.3125,0,0
1.4445,3.7144e+05,1,1.3186,1.3186,0,0
1.4467,3.7023e+05,1,1.3248,1.3248,0,0
1.4489,3.6903e+05,1,1.3309,1.3309,0,0
1.4511,3.6786e+05,1,1.3371,1.3371,0,0
1.4533,3.6669e+05,1,1.3433,1.3433,0,0
1.4554,3.6552e+05,1,1.3494,1.3494,0,0
1.4576,3.6435e+05,1,1.3556,1.3556,0,0
1.4598,3.6318e+05,1,1.3618,1.3618,0,0
1.462,3.6202e+05,1,1.3679,1.3679,0,0
1.4641,3.6085e+05,1,1.3741,1.3741,0,0
1.4663,3.5968e+05,1,1.3802,1.3802,0,0
1.4685,3.5854e+05,1,1.3864,1.3864,0,0
1.4706,3.5741e+05,1,1.3926,1.3926,0,0
1.4728,3.5627e+05,1,1.3987,1.3987,0,0
1.4749,3.5514e+05,1,1.4049,1.4049,0,0
1.4771,3.54e+05,1,1.4111,1.4111,0,0
1.4792,3.5287e+05,1,1.4172,1.4172,0,0
1.4813,3.5173e+05,1,1.4234,1.4234,0,0
1.4835,3.5059e+05,1,1.4295,1.4295,0,0
1.4856,3.4952e+05,1,1.4357,1.4357,0,0
1.4877,3.4844e+05,1,1.4419,1.4419,0,0
1.4898,3.4736e+05,1,1.448,1.448,0,0
1.492,3.4628e+05,1,1.4542,1.4542,0,0
1.4941,3.452e+05,1,1.4603,1.4603,0,0
1.4962,3.4412e+05,1,1.4665,1.4665,0,0
1.4983,3.4305e+05,1,1.4727,1.4727,0,0
1.5004,3.4197e+05,1,1.4788,1.4788,0,0
1.5025,3.4089e+05,1,1.485,1.485,0,0
1.5046,3.3981e+05,1,1.4912,1.4912,0,0
1.5067,3.3874e+05,1,1.4973,1.4973,0,0
1.5088,3.3766e+05,1,1.5035,1.5035,0,0
1.5109,3.3658e+05,1,1.5096,1.5096,0,0
1.513,3.355e+05,1,1.5158,1.5158,0,0
1.5152,3.3443e+05,1,1.522,1.522,0,0
1.5173,3.3335e+05,1,1.5281,1.5281,0,0
1.5193,3.3231e+05,1,1.5343,1.5343,0,0
1.5214,3.3129e+05,1,1.5404,1.5404,0,0
1.5235,3.3026e+05,1,1.5466,1.5466,0,0
1.5256,3.2924e+05,1,1.5528,1.5528,0,0
1.5277,3.2821e+05,1,1.5589,1.5589,0,0
1.5297,3.2719e+05,1,1.5651,1.5651,0,0
1.5318,3.2616e+05,1,1.5713,1.5713,0,0
1.5339,3.2514e+05,1,1.5774,1.5774,0,0
1.536,3.2411e+05,1,1.5836,1.5836,0,0
1.5381,3.2309e+05,1,1.5897,1.5897,0,0
1.5401,3.2206e+05,1,1.5959,1.5959,0,0
1.5422,3.2103e+05,1,1.6021,1.6021,0,0
1.5443,3.2e+05,1,1.6082,1.6082,0,0
1.5464,3.1898e+05,1,1.6144,1.6144,0,0
1.5484,3.1795e+05,1,1.6206,1.6206,0,0
1.5505,3.1692e+05,1,1.6267,1.6267,0,0
1.5526,3.1593e+05,1,1.6329,1.6329,0,0
1.5546,3.1495e+05,1,1.639,1.639,0,0
1.5567,3.1397e+05,1,1.6452,1.6452,0,0
1.5588,3.13e+05,1,1.6514,1.6514,0,0
1.5608,3.1202e+05,1,1.6575,1.6575,0,0
1.5629,3.1104e+05,1,1.6637,1.6637,0,0
1.5649,3.1006e+05,1,1.6698,1.6698,0,0
1.567,3.0908e+05,1,1.676,1.676,0,0
1.569,3.081e+05,1,1.6822,1.6822,0,0
1.5711,3.0712e+05,1,1.6883,1.6883,0,0
1.5732,3.0614e+05,1,1.6945,1.6945,0,0
1.5752,3.0516e+05,1,1.7007,1.7007,0,0
1.5773,3.0418e+05,1,1.7068,1.7068,0,0
1.5793,3.032e+05,1,1.713,1.713,0,0
1.5814,3.0221e+05,1,1.7191,1.7191,0,0
1.5834,3.0123e+05,1,1.7253,1.7253,0,0
1.5855,3.0027e+05,1,1.7315,1.7315,0,0
1.5875,2.9934e+05,1,1.7376,1.7376,0,0
1.5896,2.984e+05,1,1.7438,1.7438,0,0
1.5916,2.9747e+05,1,1.75,1.75,0,0
1.5936,2.9653e+05,1,1.7561,1.7561,0,0
1.5957,2.956e+05,1,1.7623,1.7623,0,0
1.5977,2.9466e+05,1,1.7684,1.7684,0,0
1.5998,2.9373e+05,1,1.7746,1.7746,0,0
1.6018,2.9279e+05,1,1.7808,1.7808,0,0
1.6039,2.9185e+05,1,1.7869,1.7869,0,0
1.6059,2.9092e+05,1,1.7931,1.7931,0,0
1.6079,2.8998e+05,1,1.7992,1.7992,0,0
1.61,2.8904e+05,1,1.8054,1.8054,0,0
1.612,2.881e+05,1,1.8116,1.8116,0,0
1.6141,2.8716e+05,1,1.8177,1.8177,0,0
1.6161,2.8622e+05,1,1.8239,1.8239,0,0
1.6181,2.853e+05,1,1.8301,1.8301,0,0
1.6202,2.844e+05,1,1.8362,1.8362,0,0
1.6222,2.8351e+05,1,1.8424,1.8424,0,0
1.6242,2.8262e+05,1,1.8485,1.8485,0,0
1.6262,2.8173e+05,1,1.8547,1.8547,0,0
1.6283,2.8083e+05,1,1.8609,1.8609,0,0
1.6303,2.7994e+05,1,1.867,1.867,0,0
1.6323,2.7905e+05,1,1.8732,1.8732,0,0
1.6343,2.7815e+05,1,1.8793,1.8793,0,0
1.6364,2.7726e+05,1,1.8855,1.8855,0,0
1.6384,2.7636e+05,1,1.8917,1.8917,0,0
1.6404,2.7546e+05,1,1.8978,1.8978,0,0
1.6424,2.7457e+05,1,1.904,1.904,0,0
1.6445,2.7367e+05,1,1.9102,1.9102,0,0
1.6465,2.7277e+05,1,1.9163,1.9163,0,0
1.6485,2.7188e+05,1,1.9225,1.9225,0,0
1.6506,2.7099e+05,1,1.9286,1.9286,0,0
1.6526,2.7011e+05,1,1.9348,1.9348,0,0
1.6546,2.6924e+05,1,1.941,1.941,0,0
1.6566,2.6837e+05,1,1.9471,1.9471,0,0
1.6586,2.6749e+05,1,1.9533,1.9533,0,0
1.6606,2.6662e+05,1,1.9595,1.9595,0,0
1.6627,2.6575e+05,1,1.9656,1.9656,0,0
1.6647,2.6487e+05,1,1.9718,1.9718,0,0
1.6667,2.64e+05,1,1.9779,1.9779,0,0
1.6687,2.6315e+05,1,1.9841,1.9841,0,0
1.6707,2.623e+05,1,1.9903,1.9903,0,0
1.6727,2.6145e+05,1,1.9964,1.9964,0,0
1.6747,2.6061e+05,1,2.0026,2.0026,0,0
1.6767,2.5976e+05,1,2.0087,2.0087,0,0
1.6787,2.5891e+05,1,2.0149,2.0149,0,0
1.6807,2.5806e+05,1,2.0211,2.0211,0,0
1.6827,2.5721e+05,1,2.0272,2.0272,0,0
1.6847,2.5641e+05,1,2.0334,2.0334,0,0
1.6867,2.556e+05,1,2.0396,2.0396,0,0
1.6887,2.548e+05,1,2.0457,2.0457,0,0
1.6907,2.54e+05,1,2.0519,2.0519,0,0
1.6926,2.532e+05,1,2.058,2.058,0,0
1.6946,2.524e+05,1,2.0642,2.0642,0,0
1.6966,2.516e+05,1,2.0704,2.0704,0,0
1.6986,2.508e+05,1,2.0765,2.0765,0,0
1.7005,2.5e+05,1,2.0827,2.0827,0,0
1.7025,2.492e+05,1,2.0889,2.0889,0,0
1.7045,2.4839e+05,1,2.095,2.095,0,0
1.7065,2.4759e+05,1,2.1012,2.1012,0,0
1.7084,2.4679e+05,1,2.1073,2.1073,0,0
1.7104,2.4599e+05,1,2.1135,2.1135,0,0
1.7124,2.4519e+05,1,2.1197,2.1197,0,0
1.7143,2.4439e+05,1,2.1258,2.1258,0,0
1.7163,2.4363e+05,1,2.132,2.132,0,0
1.7182,2.4288e+05,1,2.1381,2.1381,0,0
1.7201,2.4213e+05,1,2.1443,2.1443,0,0
1.722,2.4138e+05,1,2.1505,2.1505,0,0
1.724,2.4063e+05,1,2.1566,2.1566,0,0
1.7259,2.3989e+05,1,2.1628,2.1628,0,0
1.7278,2.3914e+05,1,2.169,2.169,0,0
1.7298,2.3839e+05,1,2.1751,2.1751,0,0
1.7317,2.3764e+05,1,2.1813,2.1813,0,0
1.7336,2.369e+05,1,2.1874,2.1874,0,0
1.7355,2.3616e+05,1,2.1936,2.1936,0,0
1.7374,2.3542e+05,1,2.1998,2.1998,0,0
1.7393,2.3467e+05,1,2.2059,2.2059,0,0
1.7412,2.3393e+05,1,2.2121,2.2121,0,0
1.7431,2.3319e+05,1,2.2182,2.2182,0,0
1.745,2.3245e+05,1,2.2244,2.2244,0,0
1.7468,2.3174e+05,1,2.2306,2.2306,0,0
1.7487,2.3105e+05,1,2.2367,2.2367,0,0
1.7505,2.3036e+05,1,2.2429,2.2429,0,0
1.7524,2.2968e+05,1,2.2491,2.2491,0,0
1.7542,2.2899e+05,1,2.2552,2.2552,0,0
1.756,2.283e+05,1,2.2614,2.2614,0,0
1.7579,2.2761e+05,1,2.2675,2.2675,0,0
1.7597,2.2693e+05,1,2.2737,2.2737,0,0
1.7615,2.2625e+05,1,2.2799,2.2799,0,0
1.7633,2.2557e+05,1,2.286,2.286,0,0
1.7651,2.249e+05,1,2.2922,2.2922,0,0
1.7669,2.2422e+05,1,2.2984,2.2984,0,0
1.7687,2.2355e+05,1,2.3045,2.3045,0,0
1.7705,2.2287e+05,1,2.3107,2.3107,0,0
1.7723,2.222e+05,1,2.3168,2.3168,0,0
1.7741,2.2152e+05,1,2.323,2.323,0,0
1.7759,2.2088e+05,1,2.3292,2.3292,0,0
1.7776,2.2026e+05,1,2.3353,2.3353,0,0
1.7793,2.1964e+05,1,2.3415,2.3415,0,0
1.781,2.1902e+05,1,2.3476,2.3476,0,0
1.7828,2.184e+05,1,2.3538,2.3538,0,0
1.7845,2.1779e+05,1,2.36,2.36,0,0
1.7862,2.1717e+05,1,2.3661,2.3661,0,0
1.7879,2.1655e+05,1,2.3723,2.3723,0,0
1.7896,2.1594e+05,1,2.3785,2.3785,0,0
1.7913,2.1534e+05,1,2.3846,2.3846,0,0
1.793,2.1474e+05,1,2.3908,2.3908,0,0
1.7946,2.1414e+05,1,2.3969,2.3969,0,0
1.7963,2.1354e+05,1,2.4031,2.4031,0,0
1.7979,2.1293e+05,1,2.4093,2.4093,0,0
1.7996,2.1233e+05,1,2.4154,2.4154,0,0
1.8013,2.1173e+05,1,2.4216,2.4216,0,0
1.8029,2.1115e+05,1,2.4277,2.4277,0,0
1.8045,2.1059e+05,1,2.4339,2.4339,0,0
1.8061,2.1003e+05,1,2.4401,2.4401,0,0
1.8077,2.0947e+05,1,2.4462,2.4462,0,0
1.8092,2.0891e+05,1,2.4524,2.4524,0,0
1.8108,2.0835e+05,1,2.4586,2.4586,0,0
1.8124,2.0779e+05,1,2.4647,2.4647,0,0
1.814,2.0724e+05,1,2.4709,2.4709,0,0
1.8155,2.0669e+05,1,2.477,2.477,0,0
1.817,2.0617e+05,1,2.4832,2.4832,0,0
1.8185,2.0565e+05,1,2.4894,2.4894,0,0
1.82,2.0513e+05,1,2.4955,2.4955,0,0
1.8215,2.0462e+05,1,2.5017,2.5017,0,0
1.823,2.041e+05,1,2.5079,2.5079,0,0
1.8245,2.0358e+05,1,2.514,2.514,0,0
1.826,2.0306e+05,1,2.5202,2.5202,0,0
1.8275,2.0255e+05,1,2.5263,2.5263,0,0
1.8289,2.0209e+05,1,2.5325,2.5325,0,0
1.8303,2.0163e+05,1,2.5387,2.5387,0,0
1.8317,2.0116e+05,1,2.5448,2.5448,0,0
1.8331,2.007e+05,1,2.551,2.551,0,0
1.8344,2.0024e+05,1,2.5571,2.5571,0,0
1.8358,1.9978e+05,1,2.5633,2.5633,0,0
1.8372,1.9931e+05,1,2.5695,2.5695,0,0
1.8386,1.9885e+05,1,2.5756,2.5756,0,0
1.8399,1.9842e+05,1,2.5818,2.5818,0,0
1.8412,1.9798e+05,1,2.588,2.588,0,0
1.8425,1.9754e+05,1,2.5941,2.5941,0,0
1.8438,1.971e+05,1,2.6003,2.6003,0,0
1.8451,1.9666e+05,1,2.6064,2.6064,0,0
1.8464,1.9623e+05,1,2.6126,2.6126,0,0
1.8477,1.9579e+05,1,2.6188,2.6188,0,0
1.849,1.9535e+05,1,2.6249,2.6249,0,0
1.8502,1.9497e+05,1,2.6311,2.6311,0,0
1.8514,1.9458e+05,1,2.6373,2.6373,0,0
1.8526,1.942e+05,1,2.6434,2.6434,0,0
1.8538,1.9382e+05,1,2.6496,2.6496,0,0
1.8549,1.9343e+05,1,2.6557,2.6557,0,0
1.8561,1.9305e+05,1,2.6619,2.6619,0,0
1.8573,1.9267e+05,1,2.6681,2.6681,0,0
1.8585,1.9228e+05,1,2.6742,2.6742,0,0
1.8596,1.9192e+05,1,2.6804,2.6804,0,0
1.8607,1.9157e+05,1,2.6865,2.6865,0,0
1.8618,1.9121e+05,1,2.6927,2.6927,0,0
1.8629,1.9086e+05,1,2.6989,2.6989,0,0
1.8639,1.905e+05,1,2.705,2.705,0,0
1.865,1.9015e+05,1,2.7112,2.7112,0,0
1.8661,1.8979e+05,1,2.7174,2.7174,0,0
1.8672,1.8944e+05,1,2.7235,2.7235,0,0
1.8682,1.8912e+05,1,2.7297,2.7297,0,0
1.8692,1.8881e+05,1,2.7358,2.7358,0,0
1.8701,1.8851e+05,1,2.742,2.742,0,0
1.8711,1.882e+05,1,2.7482,2.7482,0,0
1.8721,1.8789e+05,1,2.7543,2.7543,0,0
1.873,1.8759e+05,1,2.7605,2.7605,0,0
1.874,1.8728e+05,1,2.7666,2.7666,0,0
1.8749,1.8697e+05,1,2.7728,2.7728,0,0
1.8758,1.8669e+05,1,2.779,2.779,0,0
1.8767,1.8642e+05,1,2.7851,2.7851,0,0
1.8775,1.8615e+05,1,2.7913,2.7913,0,0
1.8784,1.8588e+05,1,2.7975,2.7975,0,0
1.8792,1.856e+05,1,2.8036,2.8036,0,0
1.8801,1.8533e+05,1,2.8098,2.8098,0,0
1.8809,1.8506e+05,1,2.8159,2.8159,0,0
1.8818,1.8479e+05,1,2.8221,2.8221,0,0
1.8825,1.8455e+05,1,2.8283,2.8283,0,0
1.8833,1.8432e+05,1,2.8344,2.8344,0,0
1.884,1.841e+05,1,2.8406,2.8406,0,0
1.8847,1.8387e+05,1,2.8468,2.8468,0,0
1.8854,1.8364e+05,1,2.8529,2.8529,0,0
1.8862,1.8342e+05,1,2.8591,2.8591,0,0
1.8869,1.8319e+05,1,2.8652,2.8652,0,0
1.8876,1.8297e+05,1,2.8714,2.8714,0,0
1.8883,1.8276e+05,1,2.8776,2.8776,0,0
1.8889,1.8257e+05,1,2.8837,2.8837,0,0
1.8895,1.8237e+05,1,2.8899,2.8899,0,0
1.8901,1.8218e+05,1,2.896,2.896,0,0
1.8907,1.8198e+05,1,2.9022,2.9022,0,0
1.8913,1.8179e+05,1,2.9084,2.9084,0,0
1.892,1.816e+05,1,2.9145,2.9145,0,0
1.8926,1.814e+05,1,2.9207,2.9207,0,0
1.8931,1.8123e+05,1,2.9269,2.9269,0,0
1.8936,1.8107e+05,1,2.933,2.933,0,0
1.8941,1.8092e+05,1,2.9392,2.9392,0,0
1.8946,1.8077e+05,1,2.9453,2.9453,0,0
1.8951,1.8061e+05,1,2.9515,2.9515,0,0
1.8956,1.8046e+05,1,2.9577,2.9577,0,0
1.8961,1.8031e+05,1,2.9638,2.9638,0,0
1.8966,1.8015e+05,1,2.97,2.97,0,0
1.8971,1.8001e+05,1,2.9761,2.9761,0,0
1.8975,1.7989e+05,1,2.9823,2.9823,0,0
1.8978,1.7976e+05,1,2.9885,2.9885,0,0
1.8982,1.7964e+05,1,2.9946,2.9946,0,0
1.8986,1.7951e+05,1,3.0008,3.0008,0,0
1.899,1.7939e+05,1,3.007,3.007,0,0
1.8994,1.7926e+05,1,3.0131,3.0131,0,0
1.8998,1.7914e+05,1,3.0193,3.0193,0,0
1.9002,1.7902e+05,1,3.0254,3.0254,0,0
1.9005,1.7893e+05,1,3.0316,3.0316,0,0
1.9008,1.7883e+05,1,3.0378,3.0378,0,0
1.9011,1.7874e+05,1,3.0439,3.0439,0,0
1.9014,1.7864e+05,1,3.0501,3.0501,0,0
1.9017,1.7855e+05,1,3.0563,3.0563,0,0
1.902,1.7845e+05,1,3.0624,3.0624,0,0
1.9023,1.7836e+05,1,3.0686,3.0686,0,0
1.9026,1.7827e+05,1,3.0747,3.0747,0,0
1.9028,1.7819e+05,1,3.0809,3.0809,0,0
1.9031,1.7812e+05,1,3.0871,3.0871,0,0
1.9033,1.7804e+05,1,3.0932,3.0932,0,0
1.9035,1.7797e+05,1,3.0994,3.0994,0,0
1.9038,1.7789e+05,1,3.1055,3.1055,0,0
1.904,1.7782e+05,1,3.1117,3.1117,0,0
1.9042,1.7774e+05,1,3.1179,3.1179,0,0
1.9044,1.7767e+05,1,3.124,3.124,0,0
1.9046,1.7761e+05,1,3.1302,3.1302,0,0
1.9048,1.7756e+05,1,3.1364,3.1364,0,0
1.905,1.775e+05,1,3.1425,3.1425,0,0
1.9051,1.7745e+05,1,3.1487,3.1487,0,0
1.9053,1.7739e+05,1,3.1548,3.1548,0,0
1.9055,1.7733e+05,1,3.161,3.161,0,0
1.9057,1.7728e+05,1,3.1672,3.1672,0,0
1.9058,1.7722e+05,1,3.1733,3.1733,0,0
1.906,1.7718e+05,1,3.1795,3.1795,0,0
1.9061,1.7713e+05,1,3.1857,3.1857,0,0
1.9063,1.7708e+05,1,3.1918,3.1918,0,0
1.9064,1.7704e+05,1,3.198,3.198,0,0
